Time (s),C1,C2
0.03,22.5504,22.5585
0.06,22.6289,22.6105
0.09,22.681,22.6799
0.12,22.7184,22.6936
0.15,22.76175,22.74669
0.18,22.80926,22.7947
0.21,22.84278,22.83871
0.24,22.87717,22.86845
0.27,22.9085,22.90329
0.3,22.93377,22.92752
0.33,22.96771,22.94981
0.36,22.98966,22.98221
0.39,23.00867,23.00354
0.42,23.03161,23.0194
0.45,23.04945,23.04431
0.48,23.06465,23.05946
0.51,23.08124,23.0807
0.54,23.09945,23.10102
0.57,23.10772,23.11475
0.6,23.13062,23.13169
0.63,23.15258,23.14911
0.66,23.1697,23.15729
0.69,23.18315,23.16871
0.72,23.19499,23.17685
0.75,23.2006,23.18834
0.78,23.20992,23.1994
0.81,23.21695,23.2171
0.84,23.22825,23.22605
0.87,23.23441,23.24279
0.9,23.24953,23.2455
0.93,23.26063,23.25148
0.96,23.26897,23.25365
0.99,23.27387,23.25663
01.02,23.27901,23.26517
01.05,23.2818,23.28244
01.08,23.29289,23.29136
1.11,23.2969,23.29524
1.14,23.30094,23.30302
1.17,23.30363,23.29593
1.2,23.31107,23.298
1.23,23.31512,23.3
1.26,23.32663,23.3039
1.29,23.33326,23.30681
1.32,23.32961,23.31569
1.35,23.33073,23.32055
1.38,23.33095,23.3239
1.41,23.33129,23.3303
1.44,23.34153,23.33904
1.47,23.3465,23.34459
1.5,23.34293,23.34517
1.53,23.34774,23.34988
1.56,23.34655,23.34611
1.59,23.34887,23.35005
1.62,23.35731,23.35462
1.65,23.36286,23.35502
1.68,23.3641,23.35722
1.71,23.37096,23.36209
1.74,23.36536,23.36213
1.77,23.36621,23.36343
1.8,23.37021,23.36503
1.83,23.37305,23.3664
1.86,23.37146,23.36917
1.89,23.37361,23.37063
1.92,23.36818,23.36512
1.95,23.37145,23.35943
1.98,23.37671,23.36014
02.01,23.38213,23.36544
02.04,23.38376,23.37589
02.07,23.38475,23.38726
2.1,23.38989,23.39194
2.13,23.39201,23.38925
2.16,23.39539,23.38306
2.19,23.39796,23.3766
2.22,23.39189,23.37344
2.25,23.38997,23.3731
2.28,23.38967,23.37578
2.31,23.39288,23.37951
2.34,23.39955,23.38643
2.37,23.39849,23.38987
2.4,23.39505,23.39314
2.43,23.39914,23.39546
2.46,23.40076,23.39348
2.49,23.40195,23.39755
2.52,23.4035,23.3997
2.55,23.39375,23.38918
2.58,23.39113,23.38708
2.61,23.39719,23.38435
2.64,23.40788,23.38641
2.67,23.41161,23.39532
2.7,23.4131,23.39965
2.73,23.40844,23.39304
2.76,23.40682,23.39266
2.79,23.40651,23.39485
2.82,23.40856,23.4048
2.85,23.40853,23.40714
2.88,23.4033,23.40178
2.91,23.40312,23.39983
2.94,23.4059,23.39852
2.97,23.40414,23.40206
3,23.40978,23.40927
03.03,23.41683,23.40818
03.06,23.41988,23.40736
03.09,23.42137,23.41041
3.12,23.41953,23.40764
3.15,23.41476,23.40636
3.18,23.42112,23.39873
3.21,23.41996,23.39461
3.24,23.41763,23.39819
3.27,23.41027,23.40547
3.3,23.40561,23.4139
3.33,23.41197,23.416
3.36,23.41941,23.4123
3.39,23.41984,23.41054
3.42,23.41852,23.4089
3.45,23.41603,23.40898
3.48,23.42028,23.40322
3.51,23.42152,23.40579
3.54,23.41906,23.40429
3.57,23.4163,23.40896
3.6,23.41243,23.4125
3.63,23.41308,23.40779
3.66,23.41939,23.39692
3.69,23.42364,23.4048
3.72,23.4272,23.40509
3.75,23.42619,23.41095
3.78,23.42485,23.41327
3.81,23.42311,23.4088
3.84,23.42321,23.40642
3.87,23.42332,23.4119
3.9,23.41915,23.41396
3.93,23.41469,23.41931
3.96,23.41428,23.41573
3.99,23.41398,23.4163
04.02,23.41706,23.41677
04.05,23.41771,23.41786
04.08,23.42029,23.42338
4.11,23.42099,23.42026
4.14,23.42292,23.4116
4.17,23.42427,23.41916
4.2,23.42542,23.41837
4.23,23.42477,23.41623
4.26,23.42714,23.42223
4.29,23.42573,23.41206
4.32,23.42803,23.4103
4.35,23.43146,23.41901
4.38,23.42745,23.41919
4.41,23.42414,23.41926
4.44,23.42506,23.41949
4.47,23.42608,23.41715
4.5,23.4307,23.42273
4.53,23.43184,23.41953
4.56,23.42874,23.42155
4.59,23.42455,23.42573
4.62,23.42869,23.43073
4.65,23.431,23.42798
4.68,23.43396,23.42294
4.71,23.43595,23.41153
4.74,23.4378,23.41537
4.77,23.42977,23.42341
4.8,23.42403,23.43533
4.83,23.42323,23.43628
4.86,23.42411,23.42846
4.89,23.42789,23.41709
4.92,23.43106,23.41423
4.95,23.43002,23.41217
4.98,23.43021,23.41447
05.01,23.4294,23.42638
05.04,23.42856,23.43127
05.07,23.42883,23.43066
5.1,23.43436,23.42915
5.13,23.44101,23.41757
5.16,23.44312,23.41253
5.19,23.43832,23.41888
5.22,23.43378,23.42199
5.25,23.42841,23.42459
5.28,23.42962,23.42815
5.31,23.43093,23.42761
5.34,23.42736,23.43139
5.37,23.43217,23.43543
5.4,23.42966,23.42594
5.43,23.43115,23.4227
5.46,23.43514,23.42061
5.49,23.43841,23.42275
5.52,23.43216,23.42475
5.55,23.43138,23.42384
5.58,23.42766,23.41625
5.61,23.43052,23.4241
5.64,23.43421,23.42205
5.67,23.43607,23.42263
5.7,23.43243,23.41834
5.73,23.43935,23.41374
5.76,23.44112,23.40706
5.79,23.43912,23.41157
5.82,23.43357,23.41317
5.85,23.4305,23.42009
5.88,23.43123,23.4216
5.91,23.44104,23.43119
5.94,23.4423,23.43053
5.97,23.43963,23.44174
6,23.433,23.4193